INDEX VERSION 1.131+C:\Users\ramannpr\support_works\Gokulraj-prakash-springboot-microservices\.metadata\.plugins\org.eclipse.jdt.core
3271529772.index
58787526.index
2986274923.index
225032474.index
2838583400.index
3122094469.index
3596546491.index
3572692575.index
1104970680.index
1260765892.index
3902746089.index
1918927979.index
385337418.index
3196848607.index
1798629947.index
3585466628.index
2313958777.index
2568692430.index
323151082.index
2832459767.index
3217993123.index
1455111959.index
1218872358.index
1592492651.index
1756086121.index
3090767186.index
3116846752.index
3324026473.index
4143641404.index
4153713342.index
1144970487.index
3693918647.index
1098164584.index
4174907092.index
2252462792.index
1707860295.index
2950603888.index
3370275585.index
1430213936.index
3795247591.index
465150192.index
1423314316.index
3974896339.index
207341042.index
3722966287.index
2138448766.index
4072707551.index
2110314881.index
2231687035.index
2204403105.index
2915718050.index
692542439.index
1167250797.index
2260219943.index
3039184894.index
2065128527.index
1426823354.index
2889840365.index
2809423333.index
330910920.index
2867978721.index
4020449950.index
4088453328.index
3863328446.index
1458409927.index
4035975746.index
962547040.index
3751154532.index
2818058632.index
1508738211.index
3723013793.index
2984790311.index
1530503406.index
315723234.index
881775183.index
4208017447.index
2108884292.index
3629067910.index
1620146765.index
853294408.index
3511723715.index
3484441794.index
1957876765.index
2416067767.index
1420370172.index
3084563231.index
1892195776.index
1253441553.index
2104390034.index
2749438548.index
3862945460.index
3778274508.index
4021318966.index
2898377239.index
3244034644.index
2325841008.index
2046618358.index
2229980189.index
2205690537.index
446937105.index
709509821.index
3211773916.index
4099004315.index
1456010245.index
1934246869.index
3242162686.index
1441918778.index
3905302235.index
778568628.index
4126524711.index
226300725.index
2007702705.index
1856369856.index
4026924955.index
1709371982.index
3034730816.index
2925679001.index
3447939360.index
2099293024.index
1650732884.index
1884516462.index
3324931613.index
738843045.index
3324323633.index
4013536842.index
1385631284.index
3390113449.index
4244043495.index
641489021.index
1956158391.index
4085636665.index
3549324868.index
3305599582.index
1407134076.index
3017227148.index
3086371761.index
1582025922.index
3326040869.index
1657313049.index
612732444.index
2642397326.index
4010566227.index
55205916.index
3851839698.index
179824445.index
689552030.index
1202773950.index
4062399236.index
2269126317.index
813966927.index
937209643.index
3113459258.index
3395646240.index
2168580704.index
486212650.index
2398531443.index
1281337094.index
3796863028.index
3189910816.index
3874427054.index
1020184470.index
3804311065.index
3292298372.index
1028419663.index
1408393328.index
1560923497.index
1353222841.index
1194299359.index
1084772038.index
1843123581.index
2564154321.index
4010656398.index
3878524279.index
3554285876.index
3522245167.index
1185814170.index
2988535940.index
2915072775.index
4052862817.index
4063562878.index
3645188249.index
2991459185.index
3440372764.index
1431251518.index
2434316174.index
2330177982.index
1434590085.index
1792590478.index
4237426067.index
655375146.index
158254563.index
2116607540.index
1997816215.index
262584783.index
2020632996.index
412363776.index
2875306433.index
2670565868.index
427796558.index
1043540684.index
3651360691.index
40645498.index
575839070.index
1710102452.index
2495801525.index
3067593327.index
2826165369.index
3907688511.index
2698540235.index
2720751595.index
1020732572.index
4071853253.index
870993433.index
2747938833.index
2996827272.index
2541732576.index
1428256770.index
1618400528.index
2970272929.index
26683265.index
4057192102.index
