INDEX VERSION 1.131+C:\Users\ramannpr\support_works\Gokulraj-prakash-springboot-microservices\.metadata\.plugins\org.eclipse.jdt.core
61005782.index
620686973.index
2940041470.index
1194299359.index
4266403740.index
2855815456.index
332552512.index
3570268869.index
2313958777.index
2423645988.index
3356293960.index
454746360.index
3784670313.index
876485979.index
1575160330.index
3199405612.index
3796809307.index
3883608304.index
3120250875.index
4026924955.index
1408994935.index
1076844087.index
4285879476.index
2289243406.index
3059999453.index
3237783011.index
479192563.index
2691358998.index
2114934741.index
986505237.index
3247542602.index
4063562878.index
667067614.index
3039184894.index
1185814170.index
4087089178.index
4012851379.index
4124237727.index
2993766507.index
853294408.index
3261239881.index
1608579526.index
4294491913.index
513207819.index
158383210.index
2054705722.index
2896617387.index
743906307.index
28172879.index
410254888.index
172809347.index
4150289628.index
692062729.index
3974896339.index
377629116.index
4051741702.index
2983859658.index
424372971.index
2806135479.index
3171394630.index
1218872358.index
528844237.index
2568090726.index
33676441.index
1312212905.index
3599578774.index
3044087839.index
1788716167.index
1865563010.index
3905302235.index
813912225.index
3330863170.index
271180759.index
4184620892.index
1207465174.index
1854939857.index
126178538.index
2371622536.index
1977404907.index
2290011935.index
3732731303.index
1367400509.index
1989775971.index
810136069.index
353754532.index
323151082.index
3651360691.index
388015889.index
1696811155.index
3459220032.index
3314676928.index
1856131186.index
2088757168.index
3886130372.index
3088083868.index
2410278499.index
3554970031.index
2381263593.index
965832995.index
771239714.index
2363774528.index
640336723.index
1792378765.index
2268786752.index
2113936344.index
1918478546.index
4170990302.index
3243957551.index
4021318966.index
1524124922.index
1487470015.index
1435580009.index
1773379449.index
924673716.index
1745886755.index
1314155335.index
2698540235.index
296719952.index
3972787828.index
881775183.index
3008120388.index
4238078599.index
2745507954.index
3602764609.index
770634494.index
2578411941.index
1253688453.index
3736370382.index
2264889210.index
1158433969.index
694489991.index
3927588645.index
1012627462.index
655150828.index
77189717.index
895891.index
1133951738.index
3086375095.index
822923203.index
481162704.index
1751319221.index
1001982692.index
2547374296.index
2405708574.index
2407325615.index
1900690243.index
3791944662.index
1801710740.index
2242319021.index
2399425340.index
1082481055.index
1620146765.index
446869445.index
2991459185.index
1891071456.index
4097978803.index
1575463539.index
2963618097.index
4141686900.index
1540393616.index
3837740769.index
3592324085.index
3117044325.index
3036306149.index
2028372135.index
1586054863.index
2359095660.index
3428192719.index
1228135853.index
902432117.index
1927604672.index
89754900.index
1576609233.index
1295108286.index
612732444.index
1730959310.index
1696494569.index
1750744777.index
3491642073.index
2472941547.index
2871731874.index
3241957223.index
4195670730.index
205417611.index
1847549554.index
378153073.index
3935390762.index
2087289236.index
4207721196.index
3173217000.index
3329869171.index
2696325860.index
2768789911.index
3324128331.index
1368622536.index
3678579441.index
2202795724.index
2774883217.index
919331380.index
2924625579.index
3324278907.index
207341042.index
3201819475.index
3021894907.index
314878857.index
955409931.index
2167590071.index
2550367876.index
4191256345.index
3622244527.index
203828794.index
1138586137.index
4136073177.index
2585191488.index
1636848776.index
272921644.index
2867978721.index
134925050.index
1575816604.index
101701048.index
4016404235.index
159995511.index
2669873715.index
306192891.index
2264233895.index
189493783.index
258828259.index
1711508044.index
683793092.index
814000683.index
3880282096.index
1712978290.index
1202823567.index
3900835787.index
4141541229.index
3799446350.index
385337418.index
1419448636.index
1141776122.index
1386440510.index
2002267408.index
447525961.index
2575745721.index
650748087.index
1299573515.index
1441918778.index
381549808.index
540026970.index
123301977.index
508145117.index
2126624857.index
2168459144.index
2270638465.index
3034702034.index
866225906.index
4244043495.index
2010527581.index
2785605702.index
3671046426.index
1233488400.index
3656316095.index
2763765207.index
2839386746.index
2275476630.index
829586235.index
3423015731.index
2104390034.index
3324612352.index
3603690196.index
1098775708.index
2771310547.index
1079933530.index
410985635.index
3863328446.index
817601042.index
4270902516.index
2241811906.index
790293785.index
721664578.index
751704163.index
1301585996.index
117517524.index
4245748650.index
1319128021.index
3373731574.index
55281450.index
1214367305.index
2537961431.index
3722427481.index
1315345580.index
2109644081.index
1368781377.index
1038425260.index
937209643.index
675867160.index
895729470.index
1118361339.index
4174215151.index
3967280502.index
3901881091.index
636068967.index
2239862724.index
1827967021.index
4107267014.index
2696265195.index
1408393328.index
3214032515.index
2727204366.index
847112309.index
3787286074.index
2458137043.index
1469858903.index
3390113449.index
1424796301.index
3324931613.index
1570583795.index
1976037622.index
3457050775.index
3071094729.index
773387265.index
1034979524.index
2078913668.index
1076858559.index
4059891636.index
466177304.index
1962263625.index
1936438554.index
2013734287.index
824493093.index
689502246.index
551207607.index
3651030417.index
1383676438.index
2343436462.index
3054520832.index
3719704730.index
416860875.index
2416067767.index
2573841451.index
3367366298.index
924709048.index
2513897111.index
4208700202.index
1975972258.index
1892427332.index
1883546252.index
1377767052.index
3608780438.index
1294098061.index
3554285876.index
1893894727.index
3408838264.index
3572967128.index
1962001154.index
3622408184.index
537150301.index
2897264855.index
3209061478.index
2112741047.index
1310930582.index
3967364139.index
3370275585.index
309072976.index
1997816215.index
516153486.index
3163590721.index
723554571.index
1688899923.index
374393369.index
2639784151.index
4222271864.index
1385153547.index
719321456.index
37777695.index
3862945460.index
3780435684.index
2818058632.index
1744935373.index
2682169248.index
1122211196.index
3697795078.index
