INDEX VERSION 1.131+C:\Users\ramannpr\support_works\Gokulraj-prakash-springboot-microservices\.metadata\.plugins\org.eclipse.jdt.core
3554285876.index
2568692430.index
1455111959.index
207341042.index
4208017447.index
1020732572.index
4052862817.index
465150192.index
2768789911.index
919331380.index
3324612352.index
3447939360.index
2564154321.index
3217993123.index
3638074430.index
1495270895.index
3722427481.index
3395646240.index
2698540235.index
40645498.index
1403904873.index
3141256530.index
3271529772.index
2231687035.index
2806135479.index
1202773950.index
1934246869.index
1319128021.index
3376339023.index
2785605702.index
1892195776.index
3113459258.index
3008087201.index
2585191488.index
3116846752.index
1707860295.index
272921644.index
4062399236.index
1560923497.index
2116607540.index
1893894727.index
4013536842.index
2211164925.index
4174907092.index
2826165369.index
4063562878.index
3645188249.index
2065128527.index
3086371761.index
466177304.index
4010656398.index
2950603888.index
3017227148.index
323151082.index
3585466628.index
3034730816.index
385337418.index
3902746089.index
3067593327.index
3039184894.index
3242162686.index
2260219943.index
1592492651.index
3196848607.index
3326040869.index
296719952.index
1158433969.index
4099004315.index
1428256770.index
1434590085.index
3324931613.index
2984790311.index
1582025922.index
3457050775.index
398852022.index
2495801525.index
1884516462.index
3324026473.index
315723234.index
2809423333.index
1043540684.index
4143641404.index
1618400528.index
1118361339.index
3484441794.index
2330177982.index
810136069.index
3837740769.index
1657313049.index
2264889210.index
4057192102.index
2229980189.index
2586063389.index
2747938833.index
1936438554.index
258215668.index
2749438548.index
3974896339.index
1430213936.index
2168580704.index
1068494516.index
3440372764.index
2988535940.index
3370275585.index
3905302235.index
1104970680.index
3549324868.index
813966927.index
2575745721.index
1167250797.index
3391610166.index
446937105.index
2108884292.index
3263262284.index
710418648.index
3122094469.index
2537961431.index
2898377239.index
2720751595.index
2838583400.index
1854939857.index
4238078599.index
1801710740.index
2218208024.index
2205690537.index
1098164584.index
1956158391.index
4035975746.index
427796558.index
655375146.index
486212650.index
4071853253.index
2416067767.index
737060273.index
612732444.index
4072707551.index
3390113449.index
1456010245.index
513207819.index
2867978721.index
2423645988.index
2167590071.index
3170267773.index
738843045.index
1084772038.index
1650732884.index
3874427054.index
3697795078.index
2924625579.index
1281337094.index
3795247591.index
3033822286.index
924673716.index
1957876765.index
1353222841.index
1792590478.index
2325841008.index
3028559102.index
2010527581.index
2398531443.index
1408393328.index
3804311065.index
2915072775.index
575839070.index
2313958777.index
262584783.index
4191256345.index
3572692575.index
3356293960.index
179824445.index
1194299359.index
2991459185.index
2875306433.index
1709371982.index
3608780438.index
1294098061.index
1218872358.index
58787526.index
225032474.index
3662550970.index
2002267408.index
3851839698.index
1431251518.index
1441918778.index
271180759.index
3723013793.index
1144970487.index
2099293024.index
3292298372.index
4088453328.index
2642397326.index
1367400509.index
2204403105.index
1508738211.index
2053729234.index
2087289236.index
1798629947.index
1458409927.index
1918927979.index
1797716867.index
4021318966.index
4121206250.index
2046618358.index
986505237.index
2970272929.index
3189910816.index
3244034644.index
4010566227.index
2670565868.index
1314155335.index
1233488400.index
3034702034.index
2110314881.index
1843123581.index
2275476630.index
2986274923.index
4020449950.index
2268786752.index
3596546491.index
1745886755.index
3515129874.index
2573841451.index
3722966287.index
4237426067.index
1385631284.index
2541732576.index
2269126317.index
330910920.index
353754532.index
1792378765.index
1020184470.index
870993433.index
4026924955.index
4153713342.index
778568628.index
1407134076.index
3305599582.index
1253441553.index
1260765892.index
55205916.index
1185814170.index
3324323633.index
101701048.index
1423314316.index
4126524711.index
3084563231.index
2771310547.index
3599578774.index
1856369856.index
3778274508.index
3656316095.index
3522245167.index
2252462792.index
388015889.index
3862945460.index
2270638465.index
1401501661.index
650748087.index
3907688511.index
2832459767.index
1420370172.index
2915718050.index
3511723715.index
2676596651.index
2889840365.index
1207465174.index
412363776.index
4170990302.index
1295108286.index
2568090726.index
2818058632.index
3237783011.index
751704163.index
1540393616.index
306192891.index
689552030.index
2138448766.index
3651360691.index
2696325860.index
203828794.index
2104390034.index
1530503406.index
4200495815.index
3572967128.index
3693918647.index
158254563.index
853294408.index
3962763584.index
3211773916.index
1426823354.index
208089862.index
3736370382.index
1028419663.index
2007702705.index
962547040.index
3751154532.index
641489021.index
2434316174.index
