INDEX VERSION 1.131+C:\Users\ramannpr\support_works\Gokulraj-prakash-springboot-microservices\.metadata\.plugins\org.eclipse.jdt.core
738843045.index
1650732884.index
1068494516.index
895729470.index
3324612352.index
481162704.index
3139554680.index
955409931.index
1434590085.index
1385631284.index
2087289236.index
4052862817.index
2168459144.index
1420370172.index
89754900.index
385337418.index
1957876765.index
3271529772.index
3440372764.index
3585466628.index
106914297.index
2889840365.index
2405708574.index
3440093413.index
4021318966.index
924709048.index
1655230666.index
1435580009.index
3373731574.index
3697795078.index
2749438548.index
540026970.index
1540393616.index
2264889210.index
314878857.index
3357573583.index
3170267773.index
2088757168.index
2768789911.index
675867160.index
3242162686.index
3034730816.index
1368622536.index
3189910816.index
3651360691.index
560671942.index
2065128527.index
1043540684.index
3554970031.index
323151082.index
2168580704.index
2984790311.index
2832459767.index
1098164584.index
272921644.index
650748087.index
1408393328.index
3141256530.index
919331380.index
3664434139.index
3086375095.index
2669873715.index
1956158391.index
4184487619.index
4010656398.index
1756086121.index
1228323271.index
3878524279.index
4238078599.index
1076844087.index
962547040.index
2289243406.index
424372971.index
4035975746.index
2950603888.index
479192563.index
2806135479.index
3787286074.index
937209643.index
3629067910.index
2363774528.index
737060273.index
2573841451.index
667067614.index
1709371982.index
3795247591.index
2239862724.index
1614806129.index
2771310547.index
1918478546.index
2231687035.index
3090139439.index
4020449950.index
810136069.index
2167590071.index
3117044325.index
271180759.index
890392424.index
3645188249.index
3907688511.index
2002267408.index
1707860295.index
3569779.index
3211773916.index
3324128331.index
4270902516.index
2575745721.index
911245093.index
2204403105.index
3873696353.index
2670565868.index
1314155335.index
3596546491.index
4200495815.index
3778274508.index
513207819.index
4208700202.index
3638074430.index
2315212759.index
985503597.index
4264640742.index
2434316174.index
3217993123.index
2313958777.index
3515129874.index
2423645988.index
3244034644.index
902432117.index
3039184894.index
3736370382.index
4159483876.index
1582025922.index
2814638989.index
2513897111.index
1228135853.index
1975972258.index
3967364139.index
2642397326.index
2366187434.index
2428704952.index
4016404235.index
1194299359.index
2290011935.index
175086123.index
2268786752.index
3044087839.index
2875306433.index
1487783305.index
1103832381.index
225032474.index
4174215151.index
134925050.index
3722427481.index
1428256770.index
1810282188.index
4088453328.index
2970272929.index
353754532.index
3592324085.index
1883546252.index
2585191488.index
528844237.index
1020732572.index
3622244527.index
158254563.index
4124237727.index
4099004315.index
28172879.index
3662550970.index
3880231276.index
3572967128.index
2169407369.index
3263262284.index
3116846752.index
2763765207.index
2941501479.index
813966927.index
1020184470.index
2080692850.index
3292298372.index
262584783.index
785988714.index
853294408.index
2547374296.index
4085636665.index
778568628.index
1202823567.index
1745886755.index
692542439.index
2260219943.index
3491642073.index
3722966287.index
1892195776.index
1608579526.index
3549324868.index
1129633148.index
3370275585.index
2507475985.index
1508738211.index
814000683.index
4170990302.index
2991459185.index
1430213936.index
696938426.index
1001982692.index
1144970487.index
262629720.index
1592492651.index
1310930582.index
2046618358.index
2229980189.index
296719952.index
751704163.index
1788716167.index
117517524.index
1405278549.index
3199405612.index
4126524711.index
306192891.index
4266403740.index
374393369.index
3090767186.index
3901881091.index
1792590478.index
655375146.index
4232051722.index
362199794.index
4072707551.index
1751319221.index
423668821.index
3067593327.index
689552030.index
494466972.index
1386440510.index
3967280502.index
2114934741.index
2785605702.index
876485979.index
3900835787.index
126178538.index
3113459258.index
4136073177.index
4143641404.index
4121206250.index
3572692575.index
2241811906.index
169796881.index
1575160330.index
751887502.index
4195670730.index
1560923497.index
465150192.index
1141776122.index
2847548542.index
1884516462.index
2838583400.index
4174907092.index
1798629947.index
1618400528.index
3915658389.index
3886130372.index
1657313049.index
2747938833.index
388015889.index
1180915522.index
3751154532.index
4191256345.index
1696494569.index
2205690537.index
2116607540.index
3647069862.index
3428192719.index
315723234.index
1962001154.index
656741405.index
2269126317.index
3324323633.index
2745507954.index
1294098061.index
1893894727.index
1233488400.index
1703863742.index
2014581491.index
4013536842.index
55205916.index
3329869171.index
1038425260.index
378153073.index
3423015731.index
2511425907.index
1918927979.index
767075105.index
55281450.index
2676596651.index
1319128021.index
1022489412.index
1299573515.index
2986274923.index
534771633.index
2458137043.index
37777695.index
2871731874.index
446937105.index
3863328446.index
1253688453.index
179824445.index
1458409927.index
1792378765.index
4232178577.index
2940041470.index
1214367305.index
949368981.index
4128725239.index
427796558.index
40645498.index
1407134076.index
676535794.index
3122094469.index
2691358998.index
3364335697.index
710418648.index
1367400509.index
1854939857.index
3902746089.index
3390113449.index
1383676438.index
3391610166.index
2515198726.index
852844870.index
1133951738.index
575839070.index
3883608304.index
4184620892.index
3367366298.index
2328156822.index
486212650.index
2007702705.index
4063562878.index
967604798.index
4237426067.index
4208017447.index
986505237.index
2495801525.index
1295108286.index
1710102452.index
3484441794.index
466177304.index
1575816604.index
842300565.index
3163590721.index
416860875.index
3088083868.index
3359857299.index
1028419663.index
1487470015.index
3172434085.index
2809423333.index
2397943341.index
2218208024.index
1865563010.index
4153713342.index
2867978721.index
3326040869.index
1158433969.index
924673716.index
3693918647.index
2416067767.index
58787526.index
304938151.index
4057192102.index
3784670313.index
2537961431.index
2568090726.index
3780435684.index
3241957223.index
508145117.index
2720751595.index
2963618097.index
101701048.index
3905302235.index
612732444.index
198434932.index
205417611.index
3511723715.index
2010527581.index
3962763584.index
1856131186.index
2898377239.index
3796809307.index
2915072775.index
4010566227.index
2398531443.index
1801710740.index
3851839698.index
3028559102.index
870993433.index
773387265.index
3084563231.index
1456010245.index
790293785.index
412363776.index
1900690243.index
3324026473.index
1530503406.index
2335980471.index
1084772038.index
3602764609.index
1927604672.index
1912225051.index
3356293960.index
3214032515.index
2698540235.index
2541732576.index
824493093.index
1118361339.index
26683265.index
3086371761.index
1362710205.index
1225148049.index
1843123581.index
1253441553.index
3661497918.index
822923203.index
2796258887.index
3880282096.index
1620146765.index
2211164925.index
332552512.index
2586063389.index
1403904873.index
3599578774.index
447525961.index
3862945460.index
2270638465.index
3837740769.index
1082481055.index
1167250797.index
3314676928.index
4087089178.index
3395646240.index
2578411941.index
1202773950.index
3033822286.index
2564154321.index
2526506392.index
3017227148.index
721664578.index
4244043495.index
172809347.index
719321456.index
3695637975.index
641489021.index
1586054863.index
1401501661.index
207341042.index
1430751768.index
1207465174.index
2915718050.index
2568692430.index
3656316095.index
4083612493.index
2696325860.index
881775183.index
4018108279.index
3974896339.index
2104390034.index
1218872358.index
2988535940.index
3723013793.index
2054705722.index
410254888.index
636068967.index
1431251518.index
709509821.index
1281337094.index
2529736297.index
446869445.index
4062399236.index
2924625579.index
1856369856.index
1797716867.index
3603690196.index
2996827272.index
854726998.index
2330177982.index
1385153547.index
3972787828.index
1495270895.index
3554285876.index
3606698810.index
2108884292.index
3261239881.index
2053729234.index
1423314316.index
2532292776.index
3408838264.index
4026924955.index
2252462792.index
410985635.index
2112741047.index
3305599582.index
1185814170.index
3008087201.index
258828259.index
3804311065.index
4107267014.index
4071853253.index
1793950835.index
1426823354.index
1934246869.index
1455111959.index
3447939360.index
1711508044.index
2110314881.index
2013734287.index
3522245167.index
1997816215.index
2343436462.index
381549808.index
3324278907.index
2399425340.index
1515444387.index
3247542602.index
1301585996.index
986730341.index
203828794.index
3608780438.index
2020632996.index
2138448766.index
3874427054.index
1292625792.index
3457050775.index
4285879476.index
3796863028.index
3196848607.index
1353222841.index
3927588645.index
3376339023.index
2826165369.index
3034702034.index
330910920.index
3292617649.index
1260765892.index
226300725.index
258215668.index
2925679001.index
3059999453.index
2818058632.index
1104970680.index
1576609233.index
3237783011.index
2099293024.index
771239714.index
2410278499.index
1936438554.index
2325841008.index
377629116.index
2275476630.index
208089862.index
3324931613.index
3935390762.index
3008120388.index
1696811155.index
1441918778.index
398852022.index
