INDEX VERSION 1.131+C:\Users\ramannpr\support_works\Gokulraj-prakash-springboot-microservices\.metadata\.plugins\org.eclipse.jdt.core
2168459144.index
2231687035.index
2507475985.index
332552512.index
2252462792.index
1158433969.index
2670565868.index
3862945460.index
4153713342.index
40645498.index
3324026473.index
2532292776.index
1655230666.index
262629720.index
1185814170.index
3915658389.index
3962763584.index
3515129874.index
3271529772.index
676535794.index
3390113449.index
2838583400.index
4063562878.index
2416067767.index
1456010245.index
3067593327.index
3086371761.index
1575816604.index
3549324868.index
2513897111.index
2204403105.index
1614806129.index
890392424.index
2108884292.index
4026924955.index
1420370172.index
1218872358.index
641489021.index
2984790311.index
398852022.index
2169407369.index
778568628.index
689552030.index
870993433.index
258828259.index
3217993123.index
1431251518.index
1972697557.index
2260219943.index
3141256530.index
362199794.index
1194299359.index
446869445.index
106914297.index
2818058632.index
385337418.index
3084563231.index
2065128527.index
3662550970.index
924709048.index
1495270895.index
2747938833.index
986730341.index
3370275585.index
2676596651.index
3664434139.index
751887502.index
4013536842.index
1441918778.index
2104390034.index
1367400509.index
2898377239.index
1934246869.index
2434316174.index
1214367305.index
1560923497.index
3651360691.index
1225148049.index
3484441794.index
2875306433.index
1515444387.index
2720751595.index
3305599582.index
575839070.index
374393369.index
1530503406.index
3522245167.index
3242162686.index
2080692850.index
3967280502.index
1385631284.index
3324323633.index
3189910816.index
1260765892.index
2138448766.index
2088757168.index
3034730816.index
3324278907.index
3440372764.index
1144970487.index
2112741047.index
2826165369.index
